Retention Time (min),290 nm intensity (mAU)
0.0004166666666666667,-8.254333333333333
0.0008333333333333334,-8.197000000000001
0.00125,-8.143166666666668
0.0016666666666666668,-8.108333333333334
0.0020833333333333333,-8.097499999999998
0.0025,-8.104666666666667
0.002916666666666667,-8.126
0.0033333333333333335,-8.155833333333334
0.00375,-8.181833333333334
0.004166666666666667,-8.199833333333334
0.004583333333333333,-8.214500000000001
0.005,-8.237166666666667
0.005416666666666667,-8.271166666666666
0.005833333333333334,-8.298
0.00625,-8.3245
0.006666666666666667,-8.344
0.007083333333333333,-8.346166666666667
0.0075,-8.345833333333333
0.007916666666666667,-8.338166666666668
0.008333333333333333,-8.3295
0.00875,-8.328999999999999
0.009166666666666667,-8.339166666666666
0.009583333333333333,-8.359833333333333
0.01,-8.372
0.010416666666666666,-8.369166666666667
0.010833333333333334,-8.3675
0.01125,-8.357333333333335
0.011666666666666667,-8.343
0.012083333333333333,-8.330333333333334
0.0125,-8.322333333333333
0.012916666666666667,-8.324
0.013333333333333334,-8.319833333333333
0.01375,-8.307666666666666
0.014166666666666666,-8.287833333333333
0.014583333333333334,-8.250166666666667
0.015,-8.222499999999998
0.015416666666666667,-8.215666666666666
0.015833333333333335,-8.232000000000001
0.01625,-8.2735
0.016666666666666666,-8.317833333333333
0.017083333333333332,-8.373666666666667
0.0175,-8.407666666666666
0.017916666666666668,-8.418000000000001
0.018333333333333333,-8.4135
0.01875,-8.388
0.019166666666666665,-8.357999999999999
0.019583333333333335,-8.324
0.02,-8.2955
0.020416666666666666,-8.281666666666666
0.020833333333333332,-8.275833333333333
0.02125,-8.283833333333334
0.021666666666666667,-8.294333333333332
0.022083333333333333,-8.3025
0.0225,-8.315666666666667
0.022916666666666665,-8.326333333333332
0.023333333333333334,-8.337166666666667
0.02375,-8.3345
0.024166666666666666,-8.326166666666667
0.024583333333333332,-8.315333333333333
0.025,-8.297166666666667
0.025416666666666667,-8.277833333333334
0.025833333333333333,-8.251333333333333
0.02625,-8.235000000000001
0.02666666666666667,-8.225
0.027083333333333334,-8.223
0.0275,-8.2325
0.027916666666666666,-8.243833333333333
0.028333333333333332,-8.270333333333335
0.02875,-8.290666666666667
0.029166666666666667,-8.297833333333335
0.029583333333333333,-8.298333333333334
0.03,-8.268500000000001
0.030416666666666668,-8.238833333333334
0.030833333333333334,-8.2055
0.03125,-8.1755
0.03166666666666667,-8.1675
0.03208333333333333,-8.161666666666667
0.0325,-8.182833333333333
0.032916666666666664,-8.206166666666666
0.03333333333333333,-8.225000000000001
0.03375,-8.255
0.034166666666666665,-8.283833333333334
0.034583333333333334,-8.3135
0.035,-8.333
0.035416666666666666,-8.334000000000001
0.035833333333333335,-8.323500000000001
0.03625,-8.296666666666667
0.03666666666666667,-8.268666666666666
0.037083333333333336,-8.245666666666667
0.0375,-8.239333333333333
0.03791666666666667,-8.253
0.03833333333333333,-8.277499999999998
0.03875,-8.312666666666667
0.03916666666666667,-8.333833333333333
0.03958333333333333,-8.351333333333333
0.04,-8.354166666666666
0.04041666666666666,-8.347499999999998
0.04083333333333333,-8.338833333333334
0.04125,-8.323333333333332
0.041666666666666664,-8.324
0.042083333333333334,-8.330333333333334
0.0425,-8.332
0.042916666666666665,-8.335500000000001
0.043333333333333335,-8.327833333333333
0.04375,-8.319166666666668
0.04416666666666667,-8.326166666666667
0.044583333333333336,-8.328999999999999
0.045,-8.3445
0.04541666666666667,-8.346833333333334
0.04583333333333333,-8.338833333333334
0.04625,-8.329833333333333
0.04666666666666667,-8.298166666666667
0.04708333333333333,-8.277833333333334
0.0475,-8.255666666666665
0.04791666666666667,-8.243
0.04833333333333333,-8.247333333333334
0.04875,-8.2465
0.049166666666666664,-8.249
0.04958333333333333,-8.248166666666666
0.05,-8.264000000000001
0.050416666666666665,-8.293333333333335
0.050833333333333335,-8.331833333333334
0.05125,-8.375333333333334
0.051666666666666666,-8.406833333333333
0.052083333333333336,-8.434333333333335
0.0525,-8.441833333333333
0.05291666666666667,-8.432166666666667
0.05333333333333334,-8.404666666666666
0.05375,-8.371
0.05416666666666667,-8.351833333333333
0.05458333333333333,-8.346333333333334
0.055,-8.344333333333333
0.05541666666666667,-8.332333333333333
0.05583333333333333,-8.314666666666666
0.05625,-8.277333333333333
0.056666666666666664,-8.236833333333335
0.05708333333333333,-8.186166666666667
0.0575,-8.136166666666666
0.057916666666666665,-8.119833333333332
0.058333333333333334,-8.132333333333333
0.05875,-8.186166666666667
0.059166666666666666,-8.2445
0.059583333333333335,-8.284166666666668
0.06,-8.312499999999998
0.06041666666666667,-8.306166666666666
0.060833333333333336,-8.283
0.06125,-8.239666666666666
0.06166666666666667,-8.1785
0.06208333333333333,-8.142000000000001
0.0625,-8.132
0.06291666666666666,-8.158833333333334
0.06333333333333334,-8.214666666666668
0.06375,-8.2795
0.06416666666666666,-8.331833333333334
0.06458333333333334,-8.361333333333334
0.065,-8.366
0.06541666666666666,-8.348666666666666
0.06583333333333333,-8.317666666666666
0.06625,-8.2915
0.06666666666666667,-8.290166666666666
0.06708333333333333,-8.293
0.0675,-8.305666666666667
0.06791666666666667,-8.318833333333332
0.06833333333333333,-8.318666666666667
0.06875,-8.315833333333334
0.06916666666666667,-8.321
0.06958333333333333,-8.332833333333333
0.07,-8.347666666666667
0.07041666666666667,-8.366666666666667
0.07083333333333333,-8.3825
0.07125,-8.386000000000001
0.07166666666666667,-8.371166666666667
0.07208333333333333,-8.345333333333333
0.0725,-8.308333333333332
0.07291666666666667,-8.272
0.07333333333333333,-8.251
0.07375,-8.232833333333334
0.07416666666666667,-8.230166666666666
0.07458333333333333,-8.234666666666667
0.075,-8.2495
0.07541666666666667,-8.274166666666666
0.07583333333333334,-8.284333333333334
0.07625,-8.2985
0.07666666666666666,-8.294666666666666
0.07708333333333334,-8.290666666666667
0.0775,-8.2905
0.07791666666666666,-8.277333333333333
0.07833333333333334,-8.277333333333333
0.07875,-8.278333333333334
0.07916666666666666,-8.281
0.07958333333333334,-8.2825
0.08,-8.278
0.08041666666666666,-8.274666666666667
0.08083333333333333,-8.279
0.08125,-8.2935
0.08166666666666667,-8.324333333333334
0.08208333333333333,-8.360333333333333
0.0825,-8.387
0.08291666666666667,-8.411833333333334
0.08333333333333333,-8.417333333333332
0.08375,-8.396333333333333
0.08416666666666667,-8.364833333333335
0.08458333333333333,-8.333
0.085,-8.306833333333334
0.08541666666666667,-8.287833333333333
0.08583333333333333,-8.284333333333334
0.08625,-8.304333333333334
0.08666666666666667,-8.333
0.08708333333333333,-8.360999999999999
0.0875,-8.387166666666666
0.08791666666666667,-8.395333333333333
0.08833333333333333,-8.383166666666668
0.08875,-8.372166666666667
0.08916666666666667,-8.354833333333334
0.08958333333333333,-8.334333333333333
0.09,-8.327499999999999
0.09041666666666667,-8.320166666666667
0.09083333333333334,-8.320833333333333
0.09125,-8.310833333333333
0.09166666666666666,-8.301166666666667
0.09208333333333334,-8.297666666666666
0.0925,-8.287
0.09291666666666666,-8.298166666666667
0.09333333333333334,-8.318666666666667
0.09375,-8.346499999999999
0.09416666666666666,-8.372833333333334
0.09458333333333334,-8.384500000000001
0.095,-8.388
0.09541666666666666,-8.373166666666666
0.09583333333333334,-8.349333333333334
0.09625,-8.320500000000001
0.09666666666666666,-8.292
0.09708333333333333,-8.283833333333334
0.0975,-8.292666666666667
0.09791666666666667,-8.307166666666667
0.09833333333333333,-8.319166666666666
0.09875,-8.319833333333333
0.09916666666666667,-8.310333333333332
0.09958333333333333,-8.293
0.1,-8.277
0.10041666666666667,-8.275833333333333
0.10083333333333333,-8.2805
0.10125,-8.298499999999999
0.10166666666666667,-8.326166666666667
0.10208333333333333,-8.339166666666666
0.1025,-8.338499999999998
0.10291666666666667,-8.316333333333334
0.10333333333333333,-8.286833333333334
0.10375,-8.260166666666668
0.10416666666666667,-8.250666666666666
0.10458333333333333,-8.261000000000001
0.105,-8.275666666666666
0.10541666666666667,-8.303333333333333
0.10583333333333333,-8.330833333333333
0.10625,-8.345666666666666
0.10666666666666667,-8.347500000000002
0.10708333333333334,-8.328
0.1075,-8.298166666666667
0.10791666666666666,-8.262666666666668
0.10833333333333334,-8.2335
0.10875,-8.217666666666666
0.10916666666666666,-8.208833333333333
0.10958333333333334,-8.24
0.11,-8.2835
0.11041666666666666,-8.329
0.11083333333333334,-8.367
0.11125,-8.3725
0.11166666666666666,-8.356166666666667
0.11208333333333333,-8.322833333333334
0.1125,-8.297666666666666
0.11291666666666667,-8.282333333333334
0.11333333333333333,-8.284500000000001
0.11375,-8.307666666666668
0.11416666666666667,-8.343666666666666
0.11458333333333333,-8.3645
0.115,-8.368
0.11541666666666667,-8.347833333333332
0.11583333333333333,-8.309666666666667
0.11625,-8.292666666666666
0.11666666666666667,-8.289666666666667
0.11708333333333333,-8.296833333333334
0.1175,-8.3085
0.11791666666666667,-8.322833333333334
0.11833333333333333,-8.330333333333334
0.11875,-8.336333333333334
0.11916666666666667,-8.339166666666666
0.11958333333333333,-8.348166666666666
0.12,-8.362333333333334
0.12041666666666667,-8.387500000000001
0.12083333333333333,-8.422166666666666
0.12125,-8.430833333333332
0.12166666666666667,-8.423
0.12208333333333334,-8.393333333333333
0.1225,-8.352333333333332
0.12291666666666666,-8.309166666666668
0.12333333333333334,-8.269
0.12375,-8.240333333333332
0.12416666666666666,-8.228666666666667
0.12458333333333334,-8.24
0.125,-8.270833333333334
0.12541666666666668,-8.303666666666667
0.12583333333333332,-8.327499999999999
0.12625,-8.343833333333333
0.12666666666666668,-8.3505
0.12708333333333333,-8.348
0.1275,-8.339666666666666
0.12791666666666668,-8.325
0.12833333333333333,-8.308333333333334
0.12875,-8.308666666666666
0.12916666666666668,-8.302999999999999
0.12958333333333333,-8.299000000000001
0.13,-8.283999999999999
0.13041666666666665,-8.268833333333333
0.13083333333333333,-8.262
0.13125,-8.243
0.13166666666666665,-8.232833333333334
0.13208333333333333,-8.207166666666668
0.1325,-8.1915
0.13291666666666666,-8.191
0.13333333333333333,-8.200166666666666
0.13375,-8.224166666666667
0.13416666666666666,-8.246833333333333
0.13458333333333333,-8.278333333333334
0.135,-8.303833333333335
0.13541666666666666,-8.310666666666666
0.13583333333333333,-8.310833333333333
0.13625,-8.294500000000001
0.13666666666666666,-8.2765
0.13708333333333333,-8.270333333333333
0.1375,-8.260333333333334
0.13791666666666666,-8.26
0.13833333333333334,-8.2635
0.13875,-8.272499999999999
0.13916666666666666,-8.286
0.13958333333333334,-8.292833333333334
0.14,-8.295499999999999
0.14041666666666666,-8.291666666666668
0.14083333333333334,-8.272499999999999
0.14125,-8.239833333333335
0.14166666666666666,-8.206166666666666
0.14208333333333334,-8.1815
0.1425,-8.171833333333334
0.14291666666666666,-8.177833333333334
0.14333333333333334,-8.194166666666666
0.14375,-8.219833333333334
0.14416666666666667,-8.249166666666666
0.14458333333333334,-8.269499999999999
0.145,-8.293333333333335
0.14541666666666667,-8.311666666666667
0.14583333333333334,-8.328166666666666
0.14625,-8.351166666666666
0.14666666666666667,-8.350833333333332
0.14708333333333334,-8.342333333333334
0.1475,-8.323500000000001
0.14791666666666667,-8.292499999999999
0.14833333333333334,-8.271166666666668
0.14875,-8.252666666666668
0.14916666666666667,-8.2535
0.14958333333333335,-8.266666666666666
0.15,-8.281999999999998
0.15041666666666667,-8.298333333333334
0.15083333333333335,-8.297166666666667
0.15125,-8.2875
0.15166666666666667,-8.271333333333333
0.15208333333333332,-8.252
0.1525,-8.247333333333334
0.15291666666666667,-8.254666666666665
0.15333333333333332,-8.270166666666666
0.15375,-8.290999999999999
0.15416666666666667,-8.314833333333333
0.15458333333333332,-8.339
0.155,-8.358833333333333
0.15541666666666668,-8.369166666666667
0.15583333333333332,-8.371666666666666
0.15625,-8.356500000000002
0.15666666666666668,-8.332833333333333
0.15708333333333332,-8.302333333333335
0.1575,-8.259500000000001
0.15791666666666668,-8.234833333333333
0.15833333333333333,-8.213166666666666
0.15875,-8.201333333333332
0.15916666666666668,-8.198500000000001
0.15958333333333333,-8.183833333333332
0.16,-8.1695
0.16041666666666668,-8.1535
0.16083333333333333,-8.149833333333333
0.16125,-8.165166666666666
0.16166666666666665,-8.175333333333333
0.16208333333333333,-8.183166666666667
0.1625,-8.176666666666668
0.16291666666666665,-8.144333333333334
0.16333333333333333,-8.112499999999999
0.16375,-8.081000000000001
0.16416666666666666,-8.063
0.16458333333333333,-8.071666666666667
0.165,-8.099166666666667
0.16541666666666666,-8.135
0.16583333333333333,-8.150666666666666
0.16625,-8.141333333333334
0.16666666666666666,-8.124166666666666
0.16708333333333333,-8.107333333333335
0.1675,-8.093833333333334
0.16791666666666666,-8.093499999999999
0.16833333333333333,-8.1105
0.16875,-8.137333333333332
0.16916666666666666,-8.172333333333333
0.16958333333333334,-8.204333333333333
0.17,-8.225166666666667
0.17041666666666666,-8.234
0.17083333333333334,-8.233833333333335
0.17125,-8.222000000000001
0.17166666666666666,-8.204666666666666
0.17208333333333334,-8.178666666666667
0.1725,-8.168333333333333
0.17291666666666666,-8.171333333333333
0.17333333333333334,-8.1875
0.17375,-8.218333333333334
0.17416666666666666,-8.233
0.17458333333333334,-8.2495
0.175,-8.242666666666667
0.17541666666666667,-8.222999999999999
0.17583333333333334,-8.195
0.17625,-8.161166666666666
0.17666666666666667,-8.139000000000001
0.17708333333333334,-8.126166666666666
0.1775,-8.129166666666668
0.17791666666666667,-8.137500000000001
0.17833333333333334,-8.1455
0.17875,-8.157000000000002
0.17916666666666667,-8.1765
0.17958333333333334,-8.191833333333333
0.18,-8.2005
0.18041666666666667,-8.201166666666667
0.18083333333333335,-8.198666666666666
0.18125,-8.192333333333332
0.18166666666666667,-8.193333333333333
0.18208333333333335,-8.193666666666667
0.1825,-8.187666666666667
0.18291666666666667,-8.198833333333333
0.18333333333333332,-8.207666666666666
0.18375,-8.223999999999998
0.18416666666666667,-8.228666666666667
0.18458333333333332,-8.2285
0.185,-8.243833333333333
0.18541666666666667,-8.248
0.18583333333333332,-8.258000000000001
0.18625,-8.265666666666666
0.18666666666666668,-8.269166666666667
0.18708333333333332,-8.273333333333332
0.1875,-8.276333333333334
0.18791666666666668,-8.277166666666666
0.18833333333333332,-8.274166666666666
0.18875,-8.269666666666668
0.18916666666666668,-8.273
0.18958333333333333,-8.283333333333333
0.19,-8.2885
0.19041666666666668,-8.294500000000001
0.19083333333333333,-8.300666666666666
0.19125,-8.306166666666668
0.19166666666666668,-8.311333333333332
0.19208333333333333,-8.311
0.1925,-8.315833333333332
0.19291666666666665,-8.323833333333333
0.19333333333333333,-8.335833333333333
0.19375,-8.354166666666668
0.19416666666666665,-8.368166666666667
0.19458333333333333,-8.3775
0.195,-8.3735
0.19541666666666666,-8.363333333333335
0.19583333333333333,-8.347000000000001
0.19625,-8.316833333333333
0.19666666666666666,-8.291833333333333
0.19708333333333333,-8.279666666666667
0.1975,-8.277333333333333
0.19791666666666666,-8.285333333333334
0.19833333333333333,-8.2915
0.19875,-8.299666666666665
0.19916666666666666,-8.306166666666668
0.19958333333333333,-8.306833333333332
0.2,-8.309333333333333
0.20041666666666666,-8.305333333333332
0.20083333333333334,-8.298333333333334
0.20125,-8.305
0.20166666666666666,-8.3075
0.20208333333333334,-8.312166666666668
0.2025,-8.315
0.20291666666666666,-8.301666666666668
0.20333333333333334,-8.299999999999999
0.20375,-8.2855
0.20416666666666666,-8.270666666666665
0.20458333333333334,-8.259833333333335
0.205,-8.240833333333333
0.20541666666666666,-8.241666666666667
0.20583333333333334,-8.2435
0.20625,-8.249833333333333
0.20666666666666667,-8.264666666666669
0.20708333333333334,-8.271166666666666
0.2075,-8.277166666666666
0.20791666666666667,-8.285666666666666
0.20833333333333334,-8.287
0.20875,-8.282833333333334
0.20916666666666667,-8.285166666666667
0.20958333333333334,-8.289333333333333
0.21,-8.302333333333335
0.21041666666666667,-8.320166666666667
0.21083333333333334,-8.333
0.21125,-8.344166666666666
0.21166666666666667,-8.334333333333333
0.21208333333333335,-8.324
0.2125,-8.310333333333334
0.21291666666666667,-8.291833333333331
0.21333333333333335,-8.288833333333335
0.21375,-8.293333333333333
0.21416666666666667,-8.3035
0.21458333333333332,-8.308333333333334
0.215,-8.3035
0.21541666666666667,-8.284166666666666
0.21583333333333332,-8.261666666666665
0.21625,-8.236666666666666
0.21666666666666667,-8.222833333333334
0.21708333333333332,-8.213166666666666
0.2175,-8.2185
0.21791666666666668,-8.24
0.21833333333333332,-8.257333333333333
0.21875,-8.282166666666667
0.21916666666666668,-8.288333333333332
0.21958333333333332,-8.296000000000001
0.22,-8.3065
0.22041666666666668,-8.314166666666667
0.22083333333333333,-8.326
0.22125,-8.330333333333334
0.22166666666666668,-8.334999999999999
0.22208333333333333,-8.326666666666666
0.2225,-8.317333333333332
0.22291666666666668,-8.3155
0.22333333333333333,-8.3125
0.22375,-8.314666666666668
0.22416666666666665,-8.320666666666666
0.22458333333333333,-8.3285
0.225,-8.330666666666666
0.22541666666666665,-8.332
0.22583333333333333,-8.325166666666666
0.22625,-8.312666666666667
0.22666666666666666,-8.306666666666667
0.22708333333333333,-8.308666666666666
0.2275,-8.309166666666668
0.22791666666666666,-8.305166666666667
0.22833333333333333,-8.302666666666667
0.22875,-8.303166666666668
0.22916666666666666,-8.313166666666666
0.22958333333333333,-8.333
0.23,-8.351999999999999
0.23041666666666666,-8.3625
0.23083333333333333,-8.366
0.23125,-8.352333333333334
0.23166666666666666,-8.321666666666667
0.23208333333333334,-8.28
0.2325,-8.241833333333334
0.23291666666666666,-8.213166666666668
0.23333333333333334,-8.204333333333333
0.23375,-8.209333333333333
0.23416666666666666,-8.215166666666667
0.23458333333333334,-8.225166666666667
0.235,-8.239166666666668
0.23541666666666666,-8.253333333333332
0.23583333333333334,-8.264333333333333
0.23625,-8.287833333333333
0.23666666666666666,-8.306833333333334
0.23708333333333334,-8.324166666666667
0.2375,-8.333833333333333
0.23791666666666667,-8.325166666666666
0.23833333333333334,-8.3095
0.23875,-8.285666666666666
0.23916666666666667,-8.271166666666666
0.23958333333333334,-8.254666666666667
0.24,-8.2445
0.24041666666666667,-8.249833333333333
0.24083333333333334,-8.264166666666666
0.24125,-8.285499999999999
0.24166666666666667,-8.301333333333334
0.24208333333333334,-8.307666666666668
0.2425,-8.296333333333333
0.24291666666666667,-8.275
0.24333333333333335,-8.241166666666667
0.24375,-8.2095
0.24416666666666667,-8.182
0.24458333333333335,-8.179666666666666
0.245,-8.202166666666667
0.24541666666666667,-8.238000000000001
0.24583333333333332,-8.2895
0.24625,-8.320833333333333
0.24666666666666667,-8.345833333333333
0.24708333333333332,-8.363999999999999
0.2475,-8.364333333333333
0.24791666666666667,-8.354833333333334
0.24833333333333332,-8.336
0.24875,-8.3195
0.24916666666666668,-8.307833333333333
0.24958333333333332,-8.290333333333335
0.25,-8.271166666666668
0.2504166666666667,-8.262666666666666
0.25083333333333335,-8.253833333333333
0.25125,-8.2565
0.25166666666666665,-8.2765
0.2520833333333333,-8.277666666666667
0.2525,-8.282166666666667
0.2529166666666667,-8.290000000000001
0.25333333333333335,-8.299
0.25375,-8.317166666666667
0.25416666666666665,-8.325
0.25458333333333333,-8.339833333333333
0.255,-8.345999999999998
0.2554166666666667,-8.331166666666666
0.25583333333333336,-8.31
0.25625,-8.273000000000001
0.25666666666666665,-8.2285
0.25708333333333333,-8.200333333333333
0.2575,-8.190666666666667
0.2579166666666667,-8.196833333333332
0.25833333333333336,-8.208833333333333
0.25875,-8.218166666666667
0.25916666666666666,-8.2265
